time,object temperature,ambient temperature
0.0,64.24781468531465,18.0
1.551000000000002,64.25262237762233,18.0
3.7150000000000034,64.25371503496498,18.0
5.8770000000000095,64.25080128205123,18.0
8.041000000000011,64.2435897435897,18.0
10.204999999999998,64.22187500000001,18.0
12.369,64.205078125,18.0
14.53200000000001,64.178515625,18.0
16.695000000000007,64.15351562500001,18.0
18.85900000000001,64.12812500000001,18.0
20.411,64.09687500000001,18.0
22.575000000000003,64.05976562500001,19.0
24.739000000000004,64.022265625,19.0
26.902,63.97539062500001,19.0
29.065000000000012,63.93437500000001,19.0
31.229,63.904687500000016,19.0
33.39200000000001,63.86757812500001,19.0
35.55600000000001,63.843750000000014,19.0
37.72,63.81992187500001,19.0
39.882999999999996,63.78281250000001,19.0
42.04700000000001,63.753125000000004,19.0
44.211,63.712109375000004,19.0
46.375000000000014,63.665234375000004,19.0
48.538,63.627734375000024,19.0
50.70200000000001,63.59062500000001,19.0
52.866,63.56484375,19.0
55.02900000000001,63.53710937500001,19.0
57.193,63.509375000000006,19.0
59.35700000000001,63.468359375000006,19.0
61.521,63.434765625000004,19.0
63.68400000000001,63.389843750000004,19.0
65.848,63.35429687500001,19.0
68.01299999999999,63.309375000000024,19.0
70.176,63.27578125,19.0
72.34000000000002,63.25,19.0
74.504,63.218750000000014,19.0
76.66799999999999,63.18750000000001,19.0
78.831,63.156250000000014,19.0
80.99500000000002,63.130468750000006,19.0
83.159,63.091406250000006,19.0
85.323,63.059765625000004,19.0
87.48700000000001,63.01679687500002,19.0
89.651,62.98320312500001,19.0
91.81500000000001,62.94570312500001,19.0
93.978,62.90625000000001,19.0
96.14200000000001,62.866796875000006,19.0
98.307,62.82929687500001,19.0
100.47100000000002,62.795703125,19.0
102.634,62.752734375,19.0
104.79800000000002,62.72109375,19.0
106.962,62.682031250000016,19.0
109.12600000000002,62.65625000000001,19.0
111.29,62.625,19.0
113.454,62.593750000000014,19.0
115.61800000000001,62.56250000000001,19.0
117.782,62.531250000000014,19.0
119.94600000000001,62.5,19.0
122.11,62.46875000000001,19.0
124.27300000000001,62.4375,19.0
126.438,62.40625000000001,19.0
128.60200000000003,62.38046875000001,19.0
130.76600000000002,62.341406250000006,19.0
132.92900000000003,62.30976562500001,19.0
135.094,62.26679687500001,19.0
137.25799999999998,62.23320312500001,19.0
139.421,62.190234375,19.0
141.586,62.153125,19.0
143.75,62.121875,19.0
145.914,62.101953125,19.0
148.07800000000003,62.074609375000016,19.0
150.24200000000002,62.0453125,19.0
152.40699999999998,62.01406250000001,19.0
154.57,61.98085937500001,19.0
156.73399999999998,61.94570312500001,19.0
158.899,61.903125,19.0
161.063,61.87187500000001,19.0
163.22700000000003,61.85195312500001,19.0
165.39100000000002,61.824609375,19.0
167.555,61.7953125,19.0
169.71999999999997,61.75859375000001,19.0
171.88299999999998,61.733203124999996,19.0
174.048,61.70390625000002,19.0
176.212,61.67070312500002,19.0
178.375,61.63359375000001,19.0
180.53999999999996,61.60234375000001,19.0
182.704,61.57695312500001,19.0
184.86899999999997,61.542187500000004,19.0
187.03199999999998,61.516796875000004,19.0
189.197,61.480078125000006,19.0
191.361,61.466015625000004,19.0
193.52499999999998,61.43515625000001,19.0
195.68899999999996,61.41171875000001,19.0
197.85399999999998,61.375,19.0
200.01799999999997,61.343750000000014,19.0
202.18200000000002,61.31796875000001,19.0
204.346,61.27890625000001,19.0
206.51099999999997,61.241796875,19.0
208.675,61.206640625000006,19.0
210.839,61.1734375,19.0
213.003,61.1421875,19.0
215.168,61.11289062500001,19.0
217.33100000000002,61.08007812500001,19.0
219.49599999999998,61.06250000000001,19.0
221.661,61.03945312500001,19.0
223.825,61.014453125,19.0
225.98899999999998,60.985546875000004,19.0
228.15299999999996,60.96601562500001,19.0
230.31799999999998,60.935156250000006,19.0
232.483,60.90625000000001,19.0
234.64600000000002,60.87734375,19.0
236.81099999999998,60.851953125,19.0
238.97499999999997,60.82460937500001,19.0
241.139,60.79531250000001,19.0
243.30399999999997,60.764062500000016,19.0
245.46800000000002,60.73085937500001,19.0
247.63299999999998,60.69570312500001,19.0
249.79699999999997,60.653125,19.0
251.961,60.62187500000001,19.0
254.12599999999998,60.596484375,19.0
256.291,60.576953125,19.0
258.454,60.548046875000004,19.0
260.61899999999997,60.528515625,19.0
262.784,60.497656250000006,19.0
264.948,60.468750000000014,19.0
267.11199999999997,60.43984375000001,19.0
269.277,60.414453125000016,19.0
271.442,60.387109375,19.0
273.606,60.35234375000001,19.0
275.77,60.32890625000001,19.0
277.935,60.30156250000001,19.0
280.09999999999997,60.2703125,19.0
282.264,60.2296875,19.0
284.428,60.1984375,19.0
286.593,60.17109375000001,19.0
288.757,60.14765625000001,19.0
290.92199999999997,60.11289062500001,19.0
293.086,60.080078125000014,19.0
295.251,60.062500000000014,19.0
297.41499999999996,60.039453125000016,19.0
299.58,60.01445312500001,19.0
301.745,59.991015625,19.0
303.909,59.963671875,19.0
306.073,59.926953125,19.0
308.238,59.899609375,19.0
310.40299999999996,59.860937500000006,19.0
312.568,59.824218750000014,19.0
314.73199999999997,59.802734375000014,19.0
316.896,59.775781250000016,19.0
319.061,59.76210937500001,19.0
321.22499999999997,59.74101562500001,19.0
323.39,59.71601562500001,19.0
325.555,59.685156250000006,19.0
327.71999999999997,59.661718750000006,19.0
329.884,59.625,19.0
332.048,59.59375,19.0
334.21299999999997,59.562500000000014,19.0
336.378,59.52578125000001,19.0
338.542,59.50234375000001,19.0
340.707,59.47148437500001,19.0
342.872,59.451953125,19.0
345.037,59.42304687500001,19.0
347.20099999999996,59.39804687500001,19.0
349.366,59.37500000000001,19.0
351.531,59.35195312500001,19.0
353.695,59.326953125,19.0
355.86,59.298046875000004,19.0
358.025,59.278515625,19.0
360.19,59.247656250000006,19.0
362.354,59.218750000000014,19.0
364.519,59.18984375000001,19.0
366.68399999999997,59.15898437500001,19.0
368.849,59.13398437500001,19.0
371.013,59.11289062500001,19.0
373.178,59.09921875000001,19.0
375.343,59.07226562500001,19.0
377.508,59.05078125000001,19.0
379.67199999999997,59.00859375,19.0
381.836,58.977734375000004,19.0
384.001,58.95078125,19.0
386.16499999999996,58.92578125,19.0
388.33,58.906250000000014,19.0
390.495,58.88671875000001,19.0
392.65999999999997,58.86171875000001,19.0
394.824,58.83476562500002,19.0
396.989,58.80390625000001,19.0
399.154,58.76171875000001,19.0
401.319,58.74023437500001,19.0
403.483,58.71328125,19.0
405.64799999999997,58.694140625,19.0
407.813,58.680859375000004,19.0
409.978,58.66171875,19.0
412.142,58.63476562500001,19.0
414.307,58.60781250000001,19.0
416.472,58.57890625000002,19.0
418.637,58.546093750000004,19.0
420.801,58.517187500000006,19.0
422.966,58.490234375000014,19.0
425.131,58.46875000000001,19.0
427.29499999999996,58.44726562500001,19.0
429.461,58.42578125000001,19.0
431.626,58.383593749999996,19.0
433.79099999999994,58.352734375000004,19.0
435.95500000000004,58.331250000000004,19.0
438.12,58.298437500000006,19.0
440.28499999999997,58.267578125000014,19.0
442.45000000000005,58.251953125000014,19.0
444.61400000000003,58.230859375000016,19.0
446.779,58.2078125,19.0
448.94499999999994,58.18085937500001,19.0
451.11,58.142578125000014,19.0
453.274,58.12500000000001,19.0
455.43899999999996,58.101953125,19.0
457.60400000000004,58.076953125,19.0
459.769,58.048046875000004,19.0
461.933,58.023046875,19.0
464.09900000000005,58.0,19.0
466.264,57.97695312500001,19.0
468.429,57.94648437500001,19.0
470.59299999999996,57.925390625000006,19.0
472.75800000000004,57.90625000000001,19.0
474.923,57.88710937500001,19.0
477.08799999999997,57.86601562500001,19.0
479.25300000000004,57.84101562500001,19.0
481.418,57.810156250000006,19.0
483.58299999999997,57.78125,19.0
485.74800000000005,57.75234375,19.0
487.913,57.721484375,19.0
490.078,57.701953125,19.0
492.24299999999994,57.67304687500001,19.0
494.408,57.65351562500001,19.0
496.573,57.62265625000001,19.0
498.73799999999994,57.599218750000006,19.0
500.903,57.557031250000016,19.0
503.068,57.52812500000001,19.0
505.23299999999995,57.50507812500001,19.0
507.398,57.485937500000006,19.0
509.56399999999996,57.46875,19.0
511.72799999999995,57.44609375,19.0
513.893,57.434765625000004,19.0
516.058,57.412109375,19.0
518.224,57.389453125,19.0
520.388,57.362890625000006,19.0
522.553,57.343750000000014,19.0
524.7189999999999,57.32460937500001,19.0
526.884,57.30351562500001,19.0
529.048,57.273046875000006,19.0
531.2139999999999,57.250000000000014,19.0
533.379,57.226953125000016,19.0
535.545,57.20195312500001,19.0
537.709,57.173046875000004,19.0
539.874,57.148046875,19.0
542.04,57.125,19.0
544.205,57.101953125,19.0
546.369,57.071484375,19.0
548.535,57.050390625000006,19.0
550.7,57.031250000000014,19.0
552.864,57.01210937500001,19.0
555.03,56.99101562500001,19.0
557.1949999999999,56.96601562500001,19.0
559.36,56.93515625000001,19.0
561.525,56.906250000000014,19.0
563.6899999999999,56.87734375000001,19.0
565.856,56.846484375,19.0
568.021,56.826953125,19.0
570.185,56.798046875000004,19.0
572.351,56.773046875,19.0
574.516,56.75,19.0
576.682,56.72695312500001,19.0
578.846,56.70195312500002,19.0
581.012,56.673046875000004,19.0
583.177,56.648046875000006,19.0
585.343,56.625000000000014,19.0
587.507,56.601953125000016,19.0
589.672,56.57148437500001,19.0
591.838,56.550390625000006,19.0
594.003,56.53125,19.0
596.168,56.512109375,19.0
598.333,56.491015625,19.0
600.499,56.460546875,19.0
602.664,56.43203125000001,19.0
604.829,56.422265624999994,19.0
606.994,56.389843750000004,19.0
609.16,56.36679687500001,19.0
611.325,56.345703125000014,19.0
613.49,56.32460937500001,19.0
615.655,56.30156250000001,19.0
617.821,56.269140625000006,19.0
619.987,56.24414062500001,19.0
622.151,56.224609375,19.0
624.317,56.205078125,19.0
626.482,56.16484375,19.0
628.648,56.1359375,19.0
630.813,56.10546875,19.0
632.978,56.09023437500001,19.0
635.144,56.06757812500001,19.0
637.309,56.048828125000014,19.0
639.474,56.04531250000001,19.0
641.64,56.03984375000001,19.0
643.805,56.01523437500001,19.0
645.971,55.98281250000001,19.0
648.135,55.95390625000001,19.0
650.301,55.921093750000004,19.0
652.467,55.892187500000006,19.0
654.632,55.859765625,19.0
656.797,55.840625,19.0
658.963,55.827343750000004,19.0
661.128,55.81796875,19.0
663.294,55.79531250000001,19.0
665.459,55.77070312500001,19.0
667.624,55.75546875000001,19.0
669.79,55.726953125000016,19.0
671.956,55.69648437500002,19.0
674.121,55.67539062500001,19.0
676.286,55.65625000000001,19.0
678.452,55.631640625,19.0
680.6179999999999,55.618359375000004,19.0
682.782,55.59375,19.0
684.948,55.574609375,19.0
687.114,55.553515625,19.0
689.279,55.528515625,19.0
691.444,55.497656250000006,19.0
693.61,55.468750000000014,19.0
695.776,55.43437500000002,19.0
697.941,55.41132812500002,19.0
700.106,55.39218750000002,19.0
702.2719999999999,55.369531250000016,19.0
704.438,55.36015625000002,19.0
706.603,55.34140625000001,19.0
708.768,55.32460937500001,19.0
710.934,55.305859375000004,19.0
713.1,55.28125,19.0
715.266,55.256640625,19.0
717.431,55.243359375000004,19.0
719.596,55.21875,19.0
721.762,55.199609374999994,19.0
723.928,55.178515625,19.0
726.0939999999999,55.15351562500001,19.0
728.258,55.12265625000001,19.0
730.424,55.093750000000014,19.0
732.59,55.05937500000002,19.0
734.756,55.03632812500001,19.0
736.9209999999999,55.01718750000001,19.0
739.087,55.00000000000001,19.0
741.253,54.9828125,19.0
743.418,54.958203125000004,19.0
745.583,54.94296875,19.0
747.749,54.914453125,19.0
749.915,54.883984375,19.0
752.081,54.857421875,19.0
754.246,54.84609375000001,19.0
756.412,54.82734375000001,19.0
758.578,54.81796875000002,19.0
760.744,54.795312500000016,19.0
762.909,54.77070312500002,19.0
765.074,54.750000000000014,19.0
767.24,54.72382812500001,19.0
769.406,54.707031250000014,19.0
771.571,54.69570312500001,19.0
773.737,54.682421875,19.0
775.903,54.659765625,19.0
778.069,54.64453125,19.0
780.234,54.614062499999996,19.0
782.4,54.5796875,19.0
784.566,54.552734375,19.0
786.732,54.52578125000001,19.0
788.898,54.50664062500002,19.0
791.063,54.49335937500002,19.0
793.229,54.468750000000014,19.0
795.395,54.44414062500001,19.0
797.561,54.43085937500001,19.0
799.726,54.40625000000001,19.0
801.8919999999999,54.38710937500001,19.0
804.058,54.366015625,19.0
806.224,54.335546875,19.0
808.389,54.3125,19.0
810.555,54.283984374999996,19.0
812.721,54.261328125,19.0
814.887,54.240625,19.0
817.052,54.233203125,19.0
819.218,54.216406250000006,19.0
821.384,54.207031250000014,19.0
823.55,54.17695312500001,19.0
825.715,54.156250000000014,19.0
827.881,54.13554687500001,19.0
830.047,54.11093750000001,19.0
832.213,54.09375000000001,19.0
834.378,54.07109375,19.0
836.544,54.059765625000004,19.0
838.71,54.037109375,19.0
840.876,54.014453125,19.0
843.042,53.987890625,19.0
845.207,53.96875,19.0
847.373,53.944140625,19.0
849.54,53.925390625000006,19.0
851.706,53.90859375000001,19.0
853.871,53.8953125,19.0
856.037,53.878125000000004,19.0
858.203,53.84960937500001,19.0
860.369,53.82656250000001,19.0
862.534,53.80156250000001,19.0
864.7,53.767187500000006,19.0
866.866,53.74023437500001,19.0
869.032,53.71328125,19.0
871.198,53.694140625,19.0
873.364,53.675390625,19.0
875.53,53.65859375,19.0
877.696,53.639843750000004,19.0
879.861,53.63046875,19.0
882.027,53.60234375,19.0
884.194,53.585546875000006,19.0
886.36,53.57617187500001,19.0
888.526,53.55156250000001,19.0
890.691,53.52304687500001,19.0
892.857,53.501953125000014,19.0
895.024,53.48085937500001,19.0
897.1899999999999,53.45234375000001,19.0
899.355,53.42773437500001,19.0
901.521,53.397656250000004,19.0
903.688,53.392187500000006,19.0
905.854,53.38867187500001,19.0
908.019,53.369921875,19.0
910.185,53.347265625,19.0
912.352,53.326562499999994,19.0
914.518,53.30390625,19.0
916.683,53.275390625,19.0
918.849,53.24687500000002,19.0
921.016,53.22421875000001,19.0
923.182,53.218750000000014,19.0
925.348,53.20781250000002,19.0
927.514,53.187500000000014,19.0
929.68,53.16718750000001,19.0
931.846,53.156250000000014,19.0
934.013,53.14531250000001,19.0
936.1779999999999,53.13046875000001,19.0
938.344,53.10781250000001,19.0
940.511,53.083203125000004,19.0
942.6769999999999,53.067968750000006,19.0
944.8420000000001,53.039453125,19.0
947.009,53.008984375,19.0
949.175,52.987890625000006,19.0
951.3409999999999,52.96875,19.0
953.508,52.94414062500002,19.0
955.673,52.93085937500001,19.0
957.8389999999999,52.906250000000014,19.0
960.0060000000001,52.88164062500001,19.0
962.172,52.86835937500001,19.0
964.338,52.843750000000014,19.0
966.5039999999999,52.81914062500001,19.0
968.6700000000001,52.80039062500001,19.0
970.837,52.78359375000001,19.0
973.002,52.764843750000004,19.0
975.1690000000001,52.75,19.0
977.335,52.73515625,19.0
979.502,52.71640625,19.0
981.6679999999999,52.699609374999994,19.0
983.8330000000001,52.680859375,19.0
986.0,52.65625,19.0
988.1659999999999,52.63164062500002,19.0
990.3330000000001,52.61289062500001,19.0
992.498,52.596093750000016,19.0
994.665,52.57187500000002,19.0
996.8309999999999,52.570312500000014,19.0
998.998,52.55351562500002,19.0
1001.163,52.53281250000001,19.0
1003.3299999999999,52.51406250000001,19.0
1005.4960000000001,52.49335937500001,19.0
1007.663,52.46679687500001,19.0
1009.829,52.440234375,19.0
1011.9949999999999,52.425000000000004,19.0
1014.1610000000001,52.3984375,19.0
1016.328,52.387109374999994,19.0
1018.4939999999999,52.362890625000006,19.0
1020.6600000000001,52.346093749999994,19.0
1022.826,52.32734375000001,19.0
1024.993,52.312500000000014,19.0
1027.1589999999999,52.29218750000001,19.0
1029.326,52.281250000000014,19.0
1031.492,52.27031250000002,19.0
1033.658,52.25546875000001,19.0
1035.825,52.232812500000016,19.0
1037.991,52.20820312500001,19.0
1040.157,52.18750000000001,19.0
1042.323,52.16132812500001,19.0
1044.49,52.14453125000001,19.0
1046.656,52.127734375,19.0
1048.823,52.122265625000004,19.0
1050.989,52.10546875,19.0
1053.155,52.088671874999996,19.0
1055.322,52.06250000000001,19.0
1057.488,52.04179687500001,19.0
1059.654,52.01718750000001,19.0
1061.821,51.99453125000001,19.0
1063.987,51.98515625000001,19.0
1066.154,51.96640625000001,19.0
1068.319,51.949609375000016,19.0
1070.486,51.925390625000006,19.0
1072.653,51.908593750000016,19.0
1074.819,51.88984375000001,19.0
1076.986,51.875000000000014,19.0
1079.152,51.86015625000001,19.0
1081.318,51.841406250000006,19.0
1083.485,51.824609375,19.0
1085.652,51.805859375000004,19.0
1087.818,51.78125,19.0
1089.984,51.75664062500001,19.0
1092.151,51.73789062500001,19.0
1094.318,51.72109375,19.0
1096.484,51.70234375000002,19.0
1098.65,51.692968750000006,19.0
1100.817,51.66484375000001,19.0
1102.983,51.64804687500001,19.0
1105.15,51.633203125000016,19.0
1107.316,51.61093750000001,19.0
1109.482,51.59609375000001,19.0
1111.649,51.57929687500001,19.0
1113.816,51.566406250000014,19.0
1115.983,51.55351562500001,19.0
1118.148,51.53125000000001,19.0
1120.315,51.508984375000004,19.0
1122.482,51.49609375,19.0
1124.649,51.477734375000004,19.0
1126.814,51.46875,19.0
1128.981,51.459765624999996,19.0
1131.148,51.44140625000001,19.0
1133.315,51.42851562500001,19.0
1135.481,51.41171875000001,19.0
1137.647,51.38164062500002,19.0
1139.814,51.36289062500001,19.0
1141.981,51.34062500000001,19.0
1144.147,51.32968750000001,19.0
1146.313,51.32070312500001,19.0
1148.48,51.30429687500001,19.0
1150.647,51.29531250000001,19.0
1152.814,51.28437500000001,19.0
1154.98,51.26210937500001,19.0
1157.146,51.24335937500001,19.0
1159.313,51.21875000000001,19.0
1161.48,51.194140625,19.0
1163.647,51.180859375000004,19.0
1165.813,51.15625,19.0
1167.979,51.13164062500001,19.0
1170.146,51.11289062500001,19.0
1172.313,51.09609375,19.0
1174.48,51.07734375000002,19.0
1176.646,51.062500000000014,19.0
1178.813,51.04218750000001,19.0
1180.98,51.031250000000014,19.0
1183.147,51.02031250000002,19.0
1185.312,51.00000000000001,19.0
1187.479,50.97968750000001,19.0
1189.646,50.963281250000016,19.0
1191.813,50.96015625000001,19.0
1193.98,50.94570312500001,19.0
1196.146,50.93476562500001,19.0
1198.313,50.91796875000001,19.0
1200.48,50.901171875,19.0
1202.646,50.875,19.0
1204.813,50.854296875,19.0
1206.979,50.8296875,19.0
1209.146,50.80703125,19.0
1211.313,50.792187500000004,19.0
1213.48,50.78125000000001,19.0
1215.646,50.77031250000001,19.0
1217.813,50.750000000000014,19.0
1219.98,50.73515625000001,19.0
1222.147,50.71640625000001,19.0
1224.314,50.699609375000016,19.0
1226.48,50.675390625000006,19.0
1228.646,50.65312500000001,19.0
1230.813,50.64218750000001,19.0
1232.98,50.63320312500001,19.0
1235.146,50.61679687500001,19.0
1237.313,50.60234375000001,19.0
1239.48,50.599218750000006,19.0
1241.647,50.5828125,19.0
1243.814,50.5625,19.0
1245.98,50.5421875,19.0
1248.147,50.53125,19.0
1250.314,50.520312499999996,19.0
1252.481,50.50546875,19.0
1254.648,50.47734375000001,19.0
1256.814,50.460546875000006,19.0
1258.981,50.445703125000016,19.0
1261.148,50.42343750000002,19.0
1263.315,50.408593750000016,19.0
1265.481,50.39179687500001,19.0
1267.648,50.37890625000001,19.0
1269.815,50.36054687500001,19.0
1271.982,50.346093750000016,19.0
1274.149,50.32968750000001,19.0
1276.315,50.32070312500001,19.0
1278.482,50.30429687500001,19.0
1280.649,50.29531250000001,19.0
1282.816,50.284375000000004,19.0
1284.983,50.262109375,19.0
1287.149,50.237890625,19.0
1289.316,50.22109375,19.0
1291.483,50.20234375,19.0
1293.65,50.18750000000001,19.0
1295.816,50.167187500000004,19.0
1297.983,50.15625000000001,19.0
1300.15,50.14531250000001,19.0
1302.317,50.125000000000014,19.0
1304.484,50.10468750000001,19.0
1306.65,50.093750000000014,19.0
1308.817,50.08281250000001,19.0
1310.985,50.06250000000001,19.0
1313.152,50.04218750000001,19.0
1315.319,50.031250000000014,19.0
1317.485,50.02031250000001,19.0
1319.652,50.00000000000001,19.0
1321.819,49.97968750000001,19.0
1323.986,49.96875000000001,19.0
1326.152,49.952343750000004,19.0
1328.319,49.93984375,19.0
1330.486,49.925390625,19.0
1332.653,49.918359375,19.0
1334.821,49.909375,19.0
1336.987,49.8890625,19.0
1339.154,49.86679687500001,19.0
1341.321,49.851953125,19.0
1343.488,49.83515625000002,19.0
1345.655,49.80703125000001,19.0
